# Lines beginning with `#' are comments and are ignored.
# Blank lines are significant: do not add or remove!
# _database_code_amcsd 0009325
#
# sg, abc, angles.
2       13.44 13.442 14.26    107.272 97.8170 96.660
# ctl, extra.
0.25 0.75 0.875	0.5 1.0
# limits.
--

# rad/asf, n, limits, comb.
# rads: (1.6 1) -> (1.088 1.26).
Zr6_O20	2	--	--
# zooms.
1.6:0-0
# comb, bound.
#0@c1	0	0	0.14784
#1@e1	0.30624	0	0.25

# 2theta, fwhm, hkl, mult, val.
25.59	0.2	0 1 2	6	61.91
35.17	0.2	1 0 4	6	96.62
37.80	0.2	1 1 0	6	44.59
43.38	0.2	1 1 3	12	99.82
46.21	0.2	2 0 2	6	1.46
52.58	0.2	0 2 4	6	50.05
57.54	0.2	1 1 6	12	100.00
59.78	0.2	2 1 1	12	2.60
61.17	0.2	1 2 2	12	3.30
61.35	0.2	0 1 8	6	7.58
66.56	0.2	2 1 4	12	39.66
68.25	0.2	3 0 0	6	61.31
70.46	0.2	1 2 5	12	1.31
74.36	0.2	2 0 8	6	1.52
76.94	0.2	1 0 10	6	17.73
77.30	0.2	1 1 9	12	9.57
80.75	0.2	2 2 0	6	2.29
84.41	0.2	2 2 3	12	1.91
86.41	0.2	3 1 2	12	1.40
86.57	0.2	1 2 8	12	3.00
89.07	0.2	0 2 10	6	8.37

#spectrum
3.000 	0.03610
3.020 	0.03710
3.040 	0.03710
3.060 	0.03710
3.080 	0.03620
3.100 	0.03720
3.120 	0.03710
3.140 	0.03710
3.160 	0.03720
3.180 	0.03710
3.200 	0.03710
3.220 	0.03710
3.240 	0.03710
3.260 	0.03710
3.280 	0.03710
3.300 	0.03620
3.320 	0.03710
3.340 	0.03620
3.360 	0.03610
3.380 	0.03710
3.400 	0.03710
3.420 	0.03710
3.440 	0.03610
3.460 	0.03710
3.480 	0.03710
3.500 	0.03710
3.520 	0.03710
3.540 	0.03720
3.560 	0.03710
3.580 	0.03710
3.600 	0.03720
3.620 	0.03710
3.640 	0.03710
3.660 	0.03710
3.680 	0.03710
3.700 	0.03720
3.720 	0.03710
3.740 	0.03710
3.760 	0.03710
3.780 	0.03720
3.800 	0.03720
3.820 	0.03610
3.840 	0.03710
3.860 	0.03620
3.880 	0.03620
3.900 	0.03610
3.920 	0.03710
3.940 	0.03610
3.960 	0.03710
3.980 	0.03610
4.000 	0.03610
4.020 	0.03710
4.040 	0.03610
4.060 	0.03710
4.080 	0.03710
4.100 	0.03710
4.120 	0.03620
4.140 	0.03610
4.160 	0.03620
4.180 	0.03620
4.200 	0.03610
4.220 	0.03620
4.240 	0.03710
4.260 	0.03710
4.280 	0.03610
4.300 	0.03610
4.320 	0.03610
4.340 	0.03710
4.360 	0.03620
4.380 	0.03710
4.400 	0.03610
4.420 	0.03610
4.440 	0.03710
4.460 	0.03710
4.480 	0.03710
4.500 	0.03620
4.520 	0.03610
4.540 	0.03710
4.560 	0.03620
4.580 	0.03710
4.600 	0.03710
4.620 	0.03610
4.640 	0.03710
4.660 	0.03610
4.680 	0.03620
4.700 	0.03620
4.720 	0.03710
4.740 	0.03720
4.760 	0.03710
4.780 	0.03610
4.800 	0.03610
4.820 	0.03610
4.840 	0.03710
4.860 	0.03610
4.880 	0.03620
4.900 	0.03610
4.920 	0.03710
4.940 	0.03710
4.960 	0.03610
4.980 	0.03610
5.000 	0.03710
5.020 	0.03610
5.040 	0.03610
5.060 	0.03610
5.080 	0.03710
5.100 	0.03620
5.120 	0.03610
5.140 	0.03620
5.160 	0.03620
5.180 	0.03610
5.200 	0.03710
5.220 	0.03610
5.240 	0.03610
5.260 	0.03620
5.280 	0.03620
5.300 	0.03710
5.320 	0.03610
5.340 	0.03520
5.360 	0.03610
5.380 	0.03610
5.400 	0.03610
5.420 	0.03710
5.440 	0.03620
5.460 	0.03610
5.480 	0.03610
5.500 	0.03620
5.520 	0.03620
5.540 	0.03610
5.560 	0.03610
5.580 	0.03610
5.600 	0.03610
5.620 	0.03520
5.640 	0.03610
5.660 	0.03610
5.680 	0.03620
5.700 	0.03510
5.720 	0.03610
5.740 	0.03610
5.760 	0.03510
5.780 	0.03610
5.800 	0.03610
5.820 	0.03620
5.840 	0.03610
5.860 	0.03620
5.880 	0.03610
5.900 	0.03520
5.920 	0.03510
5.940 	0.03620
5.960 	0.03610
5.980 	0.03620
6.000 	0.03610
6.020 	0.03620
6.040 	0.03510
6.060 	0.03610
6.080 	0.03610
6.100 	0.03610
6.120 	0.03510
6.140 	0.03610
6.160 	0.03520
6.180 	0.03610
6.200 	0.03620
6.220 	0.03620
6.240 	0.03610
6.260 	0.03610
6.280 	0.03510
6.300 	0.03610
6.320 	0.03610
6.340 	0.03610
6.360 	0.03620
6.380 	0.03520
6.400 	0.03610
6.420 	0.03610
6.440 	0.03810
6.460 	0.03910
6.480 	0.03810
6.500 	0.04010
6.520 	0.04590
6.540 	0.06740
6.560 	5.36040
6.580 	9.67680
6.600 	12.72260
6.620 	17.32910
6.640 	26.90040
6.660 	65.09480
6.680 	239.38280
6.700 	724.50390
6.720 	1332.16310
6.740 	1345.58010
6.760 	760.10550
6.780 	264.26070
6.800 	73.36820
6.820 	31.07320
6.840 	22.18650
6.860 	18.80760
6.880 	12.44920
6.900 	15.81050
6.920 	48.58890
6.940 	174.95800
6.960 	435.37790
6.980 	624.12400
7.000 	490.98530
7.020 	223.97950
7.040 	67.88580
7.060 	20.26180
7.080 	9.85650
7.100 	6.65240
7.120 	4.91700
7.140 	1.46680
7.160 	0.03520
7.180 	0.03510
7.200 	0.03520
7.220 	0.03420
7.240 	0.03520
7.260 	0.03520
7.280 	0.03510
7.300 	0.03520
7.320 	0.03610
7.340 	0.03510
7.360 	0.03520
7.380 	0.03510
7.400 	0.03520
7.420 	0.03510
7.440 	0.03520
7.460 	0.03520
7.480 	0.03520
7.500 	0.03520
7.520 	0.03510
7.540 	0.03520
7.560 	0.03510
7.580 	0.03510
7.600 	0.03510
7.620 	0.03510
7.640 	0.03520
7.660 	0.03510
7.680 	0.03520
7.700 	0.03510
7.720 	0.03520
7.740 	0.03520
7.760 	0.03520
7.780 	40.66800
7.800 	73.53220
7.820 	99.17580
7.840 	144.37890
7.860 	280.25880
7.880 	923.52730
7.900 	3178.32910
7.920 	7235.71680
7.940 	9418.71190
7.960 	6909.06640
7.980 	3030.36720
8.000 	914.06340
8.020 	284.04780
8.040 	143.79200
8.060 	98.16110
8.080 	72.80770
8.100 	21.80660
8.120 	0.03520
8.140 	0.03420
8.160 	0.03420
8.180 	0.03420
8.200 	0.03520
8.220 	0.03420
8.240 	0.03420
8.260 	0.03520
8.280 	0.03420
8.300 	0.03420
8.320 	0.03510
8.340 	0.03420
8.360 	0.03410
8.380 	34.05660
8.400 	61.27250
8.420 	82.62890
8.440 	120.33010
8.460 	233.99220
8.480 	769.98150
8.500 	2632.68360
8.520 	5956.84080
8.540 	7744.59860
8.560 	5759.32420
8.580 	2592.19730
8.600 	801.00000
8.620 	247.08300
8.640 	122.04980
8.660 	82.68750
8.680 	61.22270
8.700 	48.29490
8.720 	53.16110
8.740 	70.95220
8.760 	100.65620
8.780 	177.10450
8.800 	525.61920
8.820 	1880.02730
8.840 	4746.39260
8.860 	7040.66900
8.880 	5952.16800
8.900 	3028.47360
8.920 	1015.48530
8.940 	297.98920
8.960 	128.95510
8.980 	83.13380
9.000 	60.68460
9.020 	18.42090
9.040 	0.03410
9.060 	0.03420
9.080 	0.03420
9.100 	0.03420
9.120 	0.03320
9.140 	0.03420
9.160 	0.03410
9.180 	0.03410
9.200 	0.03320
9.220 	0.03420
9.240 	0.03410
9.260 	0.03410
9.280 	0.03420
9.300 	0.03320
9.320 	0.03320
9.340 	0.03410
9.360 	0.03320
9.380 	0.03420
9.400 	0.03410
9.420 	0.03410
9.440 	0.03320
9.460 	0.03420
9.480 	0.03420
9.500 	0.03420
9.520 	0.03320
9.540 	0.03320
9.560 	0.03320
9.580 	0.03420
9.600 	0.03420
9.620 	0.03320
9.640 	0.03330
9.660 	0.03320
9.680 	0.03320
9.700 	0.03320
9.720 	0.03420
9.740 	0.03320
9.760 	0.03420
9.780 	0.03320
9.800 	0.03320
9.820 	0.03420
9.840 	0.03420
9.860 	0.03420
9.880 	0.03320
9.900 	0.03320
9.920 	0.03320
9.940 	0.03320
9.960 	0.03220
9.980 	0.03320
10.000 	0.03320
10.020 	0.03220
10.040 	0.03320
10.060 	0.03420
10.080 	13.74020
10.100 	24.25690
10.120 	32.38370
10.140 	46.03520
10.160 	81.87410
10.180 	245.39750
10.200 	864.47950
10.220 	2128.68750
10.240 	3093.04200
10.260 	2646.13770
10.280 	1422.13480
10.300 	533.20600
10.320 	188.82420
10.340 	127.89360
10.360 	162.42680
10.380 	348.57520
10.400 	881.57230
10.420 	1887.40630
10.440 	3127.96190
10.460 	4210.94430
10.480 	4083.94040
10.500 	2692.44730
10.520 	1195.16410
10.540 	390.99120
10.560 	133.71190
10.580 	63.63280
10.600 	43.71980
10.620 	12.32220
10.640 	9.30070
10.660 	0.03220
10.680 	0.03220
10.700 	0.03220
10.720 	0.03320
10.740 	0.03220
10.760 	0.03220
10.780 	0.03320
10.800 	0.03320
10.820 	0.03220
10.840 	0.03230
10.860 	13.15730
10.880 	16.82320
10.900 	29.84960
10.920 	40.75000
10.940 	61.90620
10.960 	138.12210
10.980 	484.60060
11.000 	1491.21390
11.020 	2887.91890
11.040 	3243.44530
11.060 	2280.08210
11.080 	1042.40530
11.100 	338.31840
11.120 	108.02640
11.140 	53.61040
11.160 	36.42670
11.180 	11.40620
11.200 	8.60160
11.220 	0.03220
11.240 	0.03230
11.260 	0.03220
11.280 	0.03230
11.300 	0.03220
11.320 	0.03230
11.340 	0.03220
11.360 	0.03230
11.380 	0.03220
11.400 	0.03230
11.420 	0.03220
11.440 	0.03220
11.460 	0.03220
11.480 	2.77830
11.500 	4.82330
11.520 	6.39840
11.540 	8.98630
11.560 	15.32130
11.580 	43.32230
11.600 	153.52740
11.620 	392.79200
11.640 	600.60250
11.660 	547.85160
11.680 	328.68560
11.700 	132.00290
11.720 	40.67780
11.740 	14.83010
11.760 	8.57710
11.780 	6.11130
11.800 	1.96580
11.820 	0.03220
11.840 	0.03120
11.860 	0.03220
11.880 	0.03220
11.900 	0.03120
11.920 	0.03130
11.940 	0.03120
11.960 	0.03130
11.980 	0.03230
12.000 	0.03220
12.020 	0.03120
12.040 	0.03220
12.060 	0.03220
12.080 	0.03120
12.100 	0.03220
12.120 	0.03130
12.140 	0.03130
12.160 	0.03130
12.180 	0.03130
12.200 	0.03120
12.220 	0.03120
12.240 	0.03120
12.260 	0.03130
12.280 	0.03120
12.300 	0.03130
12.320 	0.03030
12.340 	0.03130
12.360 	0.03230
12.380 	0.03120
12.400 	0.03220
12.420 	0.03120
12.440 	0.03030
12.460 	0.03130
12.480 	0.03030
12.500 	0.03130
12.520 	0.03130
12.540 	0.03120
12.560 	0.03020
12.580 	0.03130
12.600 	0.03120
12.620 	0.03030
12.640 	0.03120
12.660 	0.10740
12.680 	0.12790
12.700 	0.20120
12.720 	0.26070
12.740 	0.37690
12.760 	0.77050
12.780 	2.57130
12.800 	7.95800
12.820 	15.75000
12.840 	18.26470
12.860 	13.88480
12.880 	7.28020
12.900 	2.67090
12.920 	0.85060
12.940 	0.38470
12.960 	0.25880
12.980 	0.10450
13.000 	0.08490
13.020 	0.03020
13.040 	0.76660
13.060 	0.97070
13.080 	1.67090
13.100 	2.26560
13.120 	3.40920
13.140 	7.46680
13.160 	25.81830
13.180 	78.83210
13.200 	151.50690
13.220 	170.66110
13.240 	128.36430
13.260 	67.94330
13.280 	25.43360
13.300 	9.06540
13.320 	13.57320
13.340 	19.44040
13.360 	26.28320
13.380 	49.82030
13.400 	117.62500
13.420 	291.24030
13.440 	700.39060
13.460 	1361.46380
13.480 	1708.52640
13.500 	1405.00100
13.520 	832.01270
13.540 	344.05760
13.560 	111.02540
13.580 	43.91600
13.600 	28.45700
13.620 	23.77340
13.640 	20.93550
13.660 	53.24800
13.680 	162.96580
13.700 	314.01170
13.720 	354.71680
13.740 	272.99510
13.760 	150.33590
13.780 	61.12990
13.800 	25.17480
13.820 	24.64160
13.840 	43.25100
13.860 	126.16010
13.880 	322.05270
13.900 	528.23430
13.920 	575.23250
13.940 	609.37980
13.960 	821.12600
13.980 	1038.19240
14.000 	926.75190
14.020 	621.15140
14.040 	302.27540
14.060 	131.09470
14.080 	143.27340
14.100 	284.07040
14.120 	405.49320
14.140 	364.10740
14.160 	242.99710
14.180 	112.71380
14.200 	38.21870
14.220 	12.77150
14.240 	6.56840
14.260 	4.45900
14.280 	1.52540
14.300 	1.12410
14.320 	1.47950
14.340 	1.89740
14.360 	3.45710
14.380 	4.74800
14.400 	7.56930
14.420 	18.40040
14.440 	64.07920
14.460 	177.80170
14.480 	304.87990
14.500 	320.51860
14.520 	248.61720
14.540 	142.10350
14.560 	60.76080
14.580 	22.08690
14.600 	8.90620
14.620 	4.90630
14.640 	1.85740
14.660 	1.36620
14.680 	0.15630
14.700 	0.12500
14.720 	0.02830
14.740 	0.02830
14.760 	0.02830
14.780 	0.02930
14.800 	0.02930
14.820 	0.02840
14.840 	0.02830
14.860 	0.02930
14.880 	0.02830
14.900 	0.02930
14.920 	0.02830
14.940 	0.02830
14.960 	0.02930
14.980 	0.02930
15.000 	0.03130
15.020 	0.04100
15.040 	0.05670
15.060 	0.06940
15.080 	0.06440
15.100 	0.05280
15.120 	0.04000
15.140 	0.03130
15.160 	0.02930
15.180 	0.02730
15.200 	0.02830
15.220 	0.02740
15.240 	0.02830
15.260 	0.02830
15.280 	0.02740
15.300 	0.02830
15.320 	0.02840
15.340 	0.16900
15.360 	0.26660
15.380 	0.41120
15.400 	0.57120
15.420 	0.81340
15.440 	1.51950
15.460 	5.69530
15.480 	16.17680
15.500 	34.57810
15.520 	46.23830
15.540 	43.92090
15.560 	37.89940
15.580 	51.49910
15.600 	116.59170
15.620 	206.57030
15.640 	221.87210
15.660 	172.17090
15.680 	103.47660
15.700 	43.40630
15.720 	14.10740
15.740 	5.56150
15.760 	3.39550
15.780 	1.27630
15.800 	1.06940
15.820 	0.62500
15.840 	2.11030
15.860 	5.84870
15.880 	9.92770
15.900 	10.33790
15.920 	8.00680
15.940 	5.12600
15.960 	2.80470
15.980 	2.54000
16.000 	6.62400
16.020 	21.51660
16.040 	43.33010
16.060 	52.50200
16.080 	44.00390
16.100 	31.33400
16.120 	21.98240
16.140 	36.45600
16.160 	98.56250
16.180 	182.87900
16.200 	199.78320
16.220 	156.96870
16.240 	98.79880
16.260 	43.43160
16.280 	14.17380
16.300 	5.23820
16.320 	3.04590
16.340 	1.08300
16.360 	0.81740
16.380 	0.10360
16.400 	0.13190
16.420 	0.18550
16.440 	0.38090
16.460 	1.24320
16.480 	3.66700
16.500 	6.77540
16.520 	7.31830
16.540 	5.75790
16.560 	3.68360
16.580 	1.67960
16.600 	0.58690
16.620 	0.26460
16.640 	0.19530
16.660 	0.71780
16.680 	0.97850
16.700 	1.92570
16.720 	3.75300
16.740 	7.10940
16.760 	14.99800
16.780 	39.59370
16.800 	81.87020
16.820 	102.37110
16.840 	85.54390
16.860 	60.05760
16.880 	31.00590
16.900 	11.13580
16.920 	3.68070
16.940 	1.82810
16.960 	1.37700
16.980 	0.62200
17.000 	0.64350
17.020 	0.45510
17.040 	0.83300
17.060 	3.91400
17.080 	10.16410
17.100 	21.47080
17.120 	28.69050
17.140 	28.24220
17.160 	31.58590
17.180 	59.93260
17.200 	152.25000
17.220 	284.27150
17.240 	362.13770
17.260 	424.83100
17.280 	465.40040
17.300 	424.74520
17.320 	340.14450
17.340 	224.80460
17.360 	126.80760
17.380 	56.24510
17.400 	21.25480
17.420 	9.11720
17.440 	3.83110
17.460 	2.65820
17.480 	0.67080
17.500 	0.51270
17.520 	0.02540
17.540 	0.02530
17.560 	0.02540
17.580 	0.82420
17.600 	1.07520
17.620 	1.83880
17.640 	2.67080
17.660 	5.24410
17.680 	17.03720
17.700 	54.65910
17.720 	112.70900
17.740 	133.68360
17.760 	109.07030
17.780 	78.28320
17.800 	41.41890
17.820 	15.07320
17.840 	4.97260
17.860 	2.44430
17.880 	1.66890
17.900 	0.60550
17.920 	0.46090
17.940 	0.02540
17.960 	0.02540
17.980 	0.02440
18.000 	0.02540
18.020 	0.02540
18.040 	0.02440
18.060 	0.02440
18.080 	0.29980
18.100 	0.37890
18.120 	0.62500
18.140 	0.84860
18.160 	1.31150
18.180 	3.10550
18.200 	10.81150
18.220 	30.27150
18.240 	51.08010
18.260 	50.34770
18.280 	39.12790
18.300 	26.66990
18.320 	12.66800
18.340 	4.27340
18.360 	1.53420
18.380 	0.86720
18.400 	0.31830
18.420 	0.23830
18.440 	0.18750
18.460 	0.02440
18.480 	0.02350
18.500 	0.02440
18.520 	0.02450
18.540 	0.02450
18.560 	0.02440
18.580 	0.02340
18.600 	0.02340
18.620 	0.02440
18.640 	0.02340
18.660 	0.02350
18.680 	0.05860
18.700 	0.06930
18.720 	0.10050
18.740 	0.12990
18.760 	0.19920
18.780 	0.48920
18.800 	1.65140
18.820 	4.22070
18.840 	6.37210
18.860 	5.77930
18.880 	4.46590
18.900 	3.01170
18.920 	1.39450
18.940 	0.47560
18.960 	0.19040
18.980 	0.12110
19.000 	0.05760
19.020 	2.51470
19.040 	3.18160
19.060 	4.20700
19.080 	8.55760
19.100 	12.71190
19.120 	27.57420
19.140 	89.26750
19.160 	256.48250
19.180 	463.97850
19.200 	517.41400
19.220 	512.04200
19.240 	496.56250
19.260 	349.51270
19.280 	212.75390
19.300 	129.49900
19.320 	62.54390
19.340 	23.81060
19.360 	19.76570
19.380 	40.83010
19.400 	72.23630
19.420 	81.14550
19.440 	63.70510
19.460 	48.83500
19.480 	29.04300
19.500 	12.24800
19.520 	5.15430
19.540 	2.97460
19.560 	2.12890
19.580 	1.11620
19.600 	0.63970
19.620 	0.16010
19.640 	0.58690
19.660 	0.80170
19.680 	1.17770
19.700 	1.83690
19.720 	2.69140
19.740 	6.28520
19.760 	20.06340
19.780 	51.12800
19.800 	80.34280
19.820 	86.69340
19.840 	96.91410
19.860 	96.43650
19.880 	69.66210
19.900 	53.55170
19.920 	47.82910
19.940 	37.11040
19.960 	23.91120
19.980 	17.23150
20.000 	11.08010
20.020 	4.55670
20.040 	1.64070
20.060 	0.63960
20.080 	0.46290
20.100 	0.46390
20.120 	1.07220
20.140 	2.92670
20.160 	4.22560
20.180 	4.15720
20.200 	4.91110
20.220 	6.71680
20.240 	13.92190
20.260 	35.14060
20.280 	76.90720
20.300 	119.90330
20.320 	128.13870
20.340 	129.66110
20.360 	123.66310
20.380 	84.73730
20.400 	52.76070
20.420 	32.37210
20.440 	15.08980
20.460 	5.15720
20.480 	2.33300
20.500 	1.98440
20.520 	2.56640
20.540 	5.33500
20.560 	6.66600
20.580 	5.47360
20.600 	4.31540
20.620 	3.07030
20.640 	1.45020
20.660 	0.49420
20.680 	0.21100
20.700 	0.19140
20.720 	0.15430
20.740 	0.18170
20.760 	0.26070
20.780 	1.26850
20.800 	2.56450
20.820 	5.55270
20.840 	10.41600
20.860 	13.81940
20.880 	17.68660
20.900 	37.19720
20.920 	84.87110
20.940 	128.10750
20.960 	122.40040
20.980 	113.78900
21.000 	109.71190
21.020 	79.35250
21.040 	51.13180
21.060 	34.74120
21.080 	21.21290
21.100 	10.52540
21.120 	5.12790
21.140 	2.45800
21.160 	0.76960
21.180 	0.38380
21.200 	0.25690
21.220 	0.08400
21.240 	0.03520
21.260 	0.03130
21.280 	0.02050
21.300 	0.02050
21.320 	0.01950
21.340 	0.01950
21.360 	0.01960
21.380 	0.01950
21.400 	0.02050
21.420 	0.01950
21.440 	0.01950
21.460 	0.01950
21.480 	0.02050
21.500 	0.02050
21.520 	0.02050
21.540 	0.01950
21.560 	0.02540
21.580 	0.92870
21.600 	1.36820
21.620 	1.91790
21.640 	3.11040
21.660 	6.02350
21.680 	11.77540
21.700 	38.85160
21.720 	105.58890
21.740 	192.20900
21.760 	220.62800
21.780 	226.25880
21.800 	315.47950
21.820 	498.30560
21.840 	698.93940
21.860 	761.23430
21.880 	611.79010
21.900 	460.38080
21.920 	329.45610
21.940 	166.83200
21.960 	60.80560
21.980 	21.94630
22.000 	12.85450
22.020 	6.39840
22.040 	4.46290
22.060 	4.91020
22.080 	8.56930
22.100 	26.38970
22.120 	55.17780
22.140 	70.39740
22.160 	64.20900
22.180 	52.57610
22.200 	39.23830
22.220 	23.58890
22.240 	10.93260
22.260 	4.42190
22.280 	2.45610
22.300 	2.16110
22.320 	2.46280
22.340 	4.37790
22.360 	14.05850
22.380 	43.65530
22.400 	83.43650
22.420 	90.09180
22.440 	71.56830
22.460 	63.46970
22.480 	52.35060
22.500 	52.06550
22.520 	91.73050
22.540 	136.66020
22.560 	121.06250
22.580 	90.53320
22.600 	78.45020
22.620 	51.49220
22.640 	27.32710
22.660 	32.08500
22.680 	74.39160
22.700 	124.13770
22.720 	121.28810
22.740 	95.07520
22.760 	98.54790
22.780 	109.55280
22.800 	101.78020
22.820 	71.21090
22.840 	52.53030
22.860 	43.06840
22.880 	25.03120
22.900 	9.71780
22.920 	3.62690
22.940 	3.61530
22.960 	7.05270
22.980 	12.60650
23.000 	13.17090
23.020 	10.40140
23.040 	11.81250
23.060 	15.20410
23.080 	17.15140
23.100 	18.07320
23.120 	17.54890
23.140 	13.81740
23.160 	10.40330
23.180 	7.18260
23.200 	3.65230
23.220 	1.62010
23.240 	0.72760
23.260 	0.96970
23.280 	0.93450
23.300 	1.12690
23.320 	1.85060
23.340 	3.02440
23.360 	8.29590
23.380 	28.33010
23.400 	69.64940
23.420 	97.99120
23.440 	79.65340
23.460 	61.53130
23.480 	58.57710
23.500 	44.12010
23.520 	27.12210
23.540 	16.72070
23.560 	13.95020
23.580 	17.03120
23.600 	37.12890
23.620 	98.80470
23.640 	175.14840
23.660 	172.11520
23.680 	124.24120
23.700 	110.56540
23.720 	90.88570
23.740 	55.40630
23.760 	30.69920
23.780 	18.09860
23.800 	13.22170
23.820 	11.07710
23.840 	8.30370
23.860 	10.08690
23.880 	13.41990
23.900 	14.94920
23.920 	23.12110
23.940 	40.36230
23.960 	55.86630
23.980 	89.24020
24.000 	174.91410
24.020 	234.69140
24.040 	184.93940
24.060 	136.81150
24.080 	122.84860
24.100 	79.64650
24.120 	33.30760
24.140 	11.99220
24.160 	5.85740
24.180 	2.86920
24.200 	2.74510
24.220 	4.03810
24.240 	10.54100
24.260 	32.18460
24.280 	60.63870
24.300 	62.18360
24.320 	44.15230
24.340 	38.35840
24.360 	32.48830
24.380 	19.95310
24.400 	14.76070
24.420 	15.73240
24.440 	12.86330
24.460 	11.13280
24.480 	15.30760
24.500 	30.53510
24.520 	59.98040
24.540 	75.66020
24.560 	59.93070
24.580 	57.42780
24.600 	79.08490
24.620 	86.85450
24.640 	62.83400
24.660 	40.95900
24.680 	36.57520
24.700 	26.68650
24.720 	12.39160
24.740 	4.40330
24.760 	1.90040
24.780 	2.99610
24.800 	3.79690
24.820 	6.25390
24.840 	15.20410
24.860 	35.05670
24.880 	68.15330
24.900 	133.65140
24.920 	246.01270
24.940 	287.05080
24.960 	207.83980
24.980 	162.05760
25.000 	148.57610
25.020 	94.65430
25.040 	51.69430
25.060 	61.04000
25.080 	106.47470
25.100 	144.53810
25.120 	203.89550
25.140 	275.88770
25.160 	263.00100
25.180 	241.24130
25.200 	283.20610
25.220 	332.75580
25.240 	310.20410
25.260 	212.50980
25.280 	157.82230
25.300 	140.44530
25.320 	96.00090
25.340 	49.51560
25.360 	28.18360
25.380 	35.75000
25.400 	52.11920
25.420 	49.66700
25.440 	32.65920
25.460 	26.11320
25.480 	23.78130
25.500 	13.66790
25.520 	5.18950
25.540 	2.10060
25.560 	1.67190
25.580 	3.10930
25.600 	8.75200
25.620 	16.31150
25.640 	17.79790
25.660 	13.17970
25.680 	12.34670
25.700 	13.47750
25.720 	13.73740
25.740 	28.34670
25.760 	85.34670
25.780 	178.91410
25.800 	212.54690
25.820 	163.80860
25.840 	132.59570
25.860 	124.26170
25.880 	93.21190
25.900 	71.81730
25.920 	86.48240
25.940 	99.89550
25.960 	79.75490
25.980 	62.67870
26.000 	67.56930
26.020 	89.32520
26.040 	154.86920
26.060 	242.90430
26.080 	242.01270
26.100 	170.08890
26.120 	146.29590
26.140 	137.98830
26.160 	94.43270
26.180 	89.31740
26.200 	197.18850
26.220 	369.17680
26.240 	386.94430
26.260 	263.00780
26.280 	219.10350
26.300 	212.22460
26.320 	131.22360
26.340 	50.26660
26.360 	16.36520
26.380 	7.43850
26.400 	2.96780
26.420 	2.31250
26.440 	2.71680
26.460 	1.48930
26.480 	2.12500
26.500 	3.58590
26.520 	7.16500
26.540 	22.52840
26.560 	68.77048
26.580 	136.89937
26.600 	153.56642
26.620 	107.90816
26.640 	85.98435
26.660 	86.07229
26.680 	60.70601
26.700 	34.05181
26.720 	40.11818
26.740 	78.25290
26.760 	106.74998
26.780 	96.69726
26.800 	74.74899
26.820 	70.71390
26.840 	72.02246
26.860 	93.01657
26.880 	189.14849
26.900 	322.49605
26.920 	315.38180
26.940 	208.68160
26.960 	182.35059
26.980 	186.27732
27.000 	128.32622
27.020 	94.18070
27.040 	149.20996
27.060 	279.07327
27.080 	394.79295
27.100 	408.71189
27.120 	481.87501
27.140 	567.75200
27.160 	441.96677
27.180 	280.73927
27.200 	239.60357
27.220 	186.60642
27.240 	90.54785
27.260 	35.33984
27.280 	21.32715
27.300 	22.95312
27.320 	38.50000
27.340 	50.49024
27.360 	37.32519
27.380 	26.73926
27.400 	27.77441
27.420 	25.02930
27.440 	16.04101
27.460 	16.02051
27.480 	32.78906
27.500 	95.39844
27.520 	202.03421
27.540 	243.10157
27.560 	191.26951
27.580 	230.83687
27.600 	433.72854
27.620 	606.70798
27.640 	521.19527
27.660 	344.26565
27.680 	339.78420
27.700 	398.72950
27.720 	319.56837
27.740 	168.79101
27.760 	96.82421
27.780 	91.75781
27.800 	75.65137
27.820 	60.59082
27.840 	65.98242
27.860 	59.01074
27.880 	37.69824
27.900 	33.83496
27.920 	42.36524
27.940 	45.39649
27.960 	46.74121
27.980 	52.18945
28.000 	71.82324
28.020 	80.10644
28.040 	60.61621
28.060 	44.26074
28.080 	40.66797
28.100 	30.77734
28.120 	20.07324
28.140 	18.69238
28.160 	27.87110
28.180 	32.38477
28.200 	41.48633
28.220 	81.16797
28.240 	155.40723
28.260 	229.27934
28.280 	288.27348
28.300 	316.07034
28.320 	374.58500
28.340 	452.96385
28.360 	441.65824
28.380 	321.23141
28.400 	248.32913
28.420 	240.98336
28.440 	219.07422
28.460 	180.58984
28.480 	179.01172
28.500 	205.96191
28.520 	213.47266
28.540 	248.20020
28.560 	268.10064
28.580 	199.00683
28.600 	132.02636
28.620 	128.59277
28.640 	116.45898
28.660 	66.30957
28.680 	29.56738
28.700 	20.15528
28.720 	17.70019
28.740 	11.50390
28.760 	6.36621
28.780 	6.51562
28.800 	18.09278
28.820 	41.72656
28.840 	54.33984
28.860 	38.70020
28.880 	25.87012
28.900 	29.09668
28.920 	27.20117
28.940 	15.17968
28.960 	7.16114
28.980 	6.16016
29.000 	7.87598
29.020 	17.75683
29.040 	33.14746
29.060 	39.91114
29.080 	41.63672
29.100 	76.35156
29.120 	164.34961
29.140 	263.20508
29.160 	279.47265
29.180 	233.73340
29.200 	200.76758
29.220 	188.66699
29.240 	173.50293
29.260 	163.35058
29.280 	128.75977
29.300 	76.50195
29.320 	71.32715
29.340 	129.17480
29.360 	206.39258
29.380 	213.23144
29.400 	142.42773
29.420 	117.42969
29.440 	169.04883
29.460 	196.05078
29.480 	135.03809
29.500 	69.83496
29.520 	59.84277
29.540 	72.10156
29.560 	66.04394
29.580 	44.05371
29.600 	22.96777
29.620 	16.36132
29.640 	19.40821
29.660 	16.73047
29.680 	9.66211
29.700 	6.81250
29.720 	13.04687
29.740 	39.70996
29.760 	91.33594
29.780 	119.17676
29.800 	84.80372
29.820 	54.46582
29.840 	61.62305
29.860 	66.54199
29.880 	52.71191
29.900 	44.62109
29.920 	55.43848
29.940 	103.61914
29.960 	161.43847
29.980 	142.68359
30.000 	98.20118
30.020 	118.40039
30.040 	174.57032
30.060 	174.00488
30.080 	151.89941
30.100 	173.57422
30.120 	212.95899
30.140 	209.26954
30.160 	174.96192
30.180 	132.15039
30.200 	102.89648
30.220 	80.78125
30.240 	56.23144
30.260 	28.72363
30.280 	14.23243
30.300 	10.40625
30.320 	12.84765
30.340 	29.12305
30.360 	68.75195
30.380 	116.16601
30.400 	172.70508
30.420 	320.15137
30.440 	491.92578
30.460 	435.46778
30.480 	264.07715
30.500 	230.94531
30.520 	273.13183
30.540 	205.28613
30.560 	92.55371
30.580 	37.29101
30.600 	22.33691
30.620 	16.26269
30.640 	8.58106
30.660 	4.05664
30.680 	1.14453
30.700 	1.79004
30.720 	4.06836
30.740 	5.82715
30.760 	4.64160
30.780 	3.61914
30.800 	6.18360
30.820 	11.51562
30.840 	15.37012
30.860 	16.68554
30.880 	18.03515
30.900 	15.55859
30.920 	12.21875
30.940 	12.33691
30.960 	20.12696
30.980 	38.45215
31.000 	55.88965
31.020 	48.00879
31.040 	32.01758
31.060 	30.35059
31.080 	37.33301
31.100 	42.93946
31.120 	51.29687
31.140 	47.05078
31.160 	27.19531
31.180 	18.35547
31.200 	23.99707
31.220 	23.36524
31.240 	14.25977
31.260 	9.12110
31.280 	12.86230
31.300 	34.03027
31.320 	102.31641
31.340 	212.34180
31.360 	249.24219
31.380 	172.39941
31.400 	130.58497
31.420 	161.34570
31.440 	163.58887
31.460 	109.83887
31.480 	93.72754
31.500 	180.90429
31.520 	335.16308
31.540 	379.17969
31.560 	261.51953
31.580 	198.83399
31.600 	240.78223
31.620 	250.72754
31.640 	179.42578
31.660 	124.46094
31.680 	91.55274
31.700 	59.64356
31.720 	45.89160
31.740 	59.34863
31.760 	91.29492
31.780 	111.01856
31.800 	82.69922
31.820 	47.68360
31.840 	46.43457
31.860 	56.25097
31.880 	42.79297
31.900 	23.09472
31.920 	17.65820
31.940 	20.96192
31.960 	30.70215
31.980 	46.02539
32.000 	50.41309
32.020 	39.93067
32.040 	29.94433
32.060 	31.75684
32.080 	34.09082
32.100 	26.84473
32.120 	17.06055
32.140 	10.80664
32.160 	8.14941
32.180 	6.16797
32.200 	4.70801
32.220 	3.05761
32.240 	1.41504
32.260 	0.73243
32.280 	0.48536
32.300 	0.52246
32.320 	0.67969
32.340 	1.11816
32.360 	2.81738
32.380 	7.93750
32.400 	22.27051
32.420 	40.55468
32.440 	41.88672
32.460 	34.87695
32.480 	52.89258
32.500 	93.27247
32.520 	104.29492
32.540 	68.44629
32.560 	47.14355
32.580 	59.97265
32.600 	68.53125
32.620 	45.54102
32.640 	25.13184
32.660 	30.80567
32.680 	63.89453
32.700 	107.37989
32.720 	111.44336
32.740 	70.75879
32.760 	45.45215
32.780 	54.64942
32.800 	62.88671
32.820 	51.65527
32.840 	47.34472
32.860 	62.63086
32.880 	71.05176
32.900 	54.78906
32.920 	35.77051
32.940 	34.08008
32.960 	38.67969
32.980 	37.19141
33.000 	43.78028
33.020 	62.86035
33.040 	60.48731
33.060 	35.36426
33.080 	25.40723
33.100 	34.50196
33.120 	38.59570
33.140 	35.03320
33.160 	59.92676
33.180 	118.19336
33.200 	138.32422
33.220 	87.63770
33.240 	50.25976
33.260 	60.13086
33.280 	75.58789
33.300 	59.22363
33.320 	42.76660
33.340 	44.31153
33.360 	51.20313
33.380 	61.37598
33.400 	75.33789
33.420 	74.08789
33.440 	53.58105
33.460 	41.26367
33.480 	47.37500
33.500 	72.16895
33.520 	115.29102
33.540 	147.36816
33.560 	118.40820
33.580 	88.53125
33.600 	100.42871
33.620 	121.04297
33.640 	118.90137
33.660 	96.90332
33.680 	66.36328
33.700 	42.78809
33.720 	41.18554
33.740 	54.01758
33.760 	51.37500
33.780 	30.50098
33.800 	18.02442
33.820 	18.97363
33.840 	21.39844
33.860 	15.97656
33.880 	8.96387
33.900 	6.14843
33.920 	5.17481
33.940 	5.45605
33.960 	11.48047
33.980 	31.29882
34.000 	58.79297
34.020 	62.23243
34.040 	38.28516
34.060 	23.88770
34.080 	29.32129
34.100 	34.69141
34.120 	24.53418
34.140 	12.10937
34.160 	9.28907
34.180 	21.92481
34.200 	51.75878
34.220 	71.81836
34.240 	52.31446
34.260 	26.83887
34.280 	25.20800
34.300 	35.80273
34.320 	31.54882
34.340 	15.54492
34.360 	5.31738
34.380 	1.54590
34.400 	0.89355
34.420 	0.79394
34.440 	0.75586
34.460 	1.07910
34.480 	2.89160
34.500 	7.26074
34.520 	13.26856
34.540 	15.24414
34.560 	16.83887
34.580 	29.04687
34.600 	57.95703
34.620 	91.25976
34.640 	86.29394
34.660 	51.93848
34.680 	37.50781
34.700 	53.99414
34.720 	73.31543
34.740 	66.05273
34.760 	39.94727
34.780 	22.70800
34.800 	28.12012
34.820 	59.57812
34.840 	113.88770
34.860 	146.06446
34.880 	120.27637
34.900 	118.04199
34.920 	187.35059
34.940 	277.50977
34.960 	311.46875
34.980 	246.08008
35.000 	185.13282
35.020 	191.43555
35.040 	215.21875
35.060 	210.19043
35.080 	178.77442
35.100 	156.60742
35.120 	149.44141
35.140 	129.58691
35.160 	103.20020
35.180 	94.95508
35.200 	95.79687
35.220 	95.40722
35.240 	75.96972
35.260 	59.70703
35.280 	66.26758
35.300 	71.59473
35.320 	65.04004
35.340 	58.77148
35.360 	52.87402
35.380 	45.76367
35.400 	40.75683
35.420 	40.36133
35.440 	37.52930
35.460 	30.18652
35.480 	25.43359
35.500 	21.15234
35.520 	15.40821
35.540 	11.07031
35.560 	10.05274
35.580 	10.13379
35.600 	13.09082
35.620 	28.88868
35.640 	53.11035
35.660 	53.26367
35.680 	30.43164
35.700 	18.09765
35.720 	25.09570
35.740 	36.86132
35.760 	41.76855
35.780 	51.40722
35.800 	67.19825
35.820 	80.78614
35.840 	82.15430
35.860 	67.38476
35.880 	61.58789
35.900 	81.13965
35.920 	115.23340
35.940 	144.29981
35.960 	197.03515
35.980 	283.49316
36.000 	374.86817
36.020 	437.45410
36.040 	348.81054
36.060 	226.83496
36.080 	186.28809
36.100 	203.37890
36.120 	195.90723
36.140 	118.20801
36.160 	58.23828
36.180 	46.01368
36.200 	51.92480
36.220 	45.68945
36.240 	37.98536
36.260 	36.50098
36.280 	39.50098
36.300 	43.31739
36.320 	42.63965
36.340 	61.06054
36.360 	108.05078
36.380 	137.68261
36.400 	109.35644
36.420 	70.71191
36.440 	60.54785
36.460 	73.17285
36.480 	78.74219
36.500 	77.27930
36.520 	81.88183
36.540 	76.95703
36.560 	79.15918
36.580 	86.43946
36.600 	74.31152
36.620 	57.17871
36.640 	54.32519
36.660 	74.82617
36.680 	89.16699
36.700 	71.42090
36.720 	63.46972
36.740 	84.45996
36.760 	98.93554
36.780 	86.76660
36.800 	56.68457
36.820 	41.74512
36.840 	42.79297
36.860 	39.37793
36.880 	28.04687
36.900 	15.12696
36.920 	10.95898
36.940 	17.85254
36.960 	30.97070
36.980 	37.13672
37.000 	47.18750
37.020 	68.77343
37.040 	68.03515
37.060 	44.98047
37.080 	28.10937
37.100 	28.97265
37.120 	36.71191
37.140 	33.11133
37.160 	29.29297
37.180 	30.01367
37.200 	22.32617
37.220 	12.39063
37.240 	12.38672
37.260 	22.46387
37.280 	32.02832
37.300 	27.64062
37.320 	18.20117
37.340 	18.57128
37.360 	31.60743
37.380 	50.53808
37.400 	51.23242
37.420 	30.72949
37.440 	17.49804
37.460 	20.71680
37.480 	34.47950
37.500 	40.30469
37.520 	28.55469
37.540 	13.22558
37.560 	6.71094
37.580 	8.75976
37.600 	12.82227
37.620 	13.45020
37.640 	11.45606
37.660 	7.84668
37.680 	4.30566
37.700 	3.07324
37.720 	4.43457
37.740 	7.60840
37.760 	8.56055
37.780 	6.67187
37.800 	5.08691
37.820 	6.82617
37.840 	16.61035
37.860 	48.63183
37.880 	110.72168
37.900 	161.91797
37.920 	146.26074
37.940 	89.63184
37.960 	59.42089
37.980 	71.64648
38.000 	87.64063
38.020 	74.19824
38.040 	46.74218
38.060 	41.22949
38.080 	64.66309
38.100 	81.47070
38.120 	68.69433
38.140 	71.27832
38.160 	122.70410
38.180 	185.50489
38.200 	178.68164
38.220 	129.35644
38.240 	90.57520
38.260 	81.54883
38.280 	88.37695
38.300 	78.28223
38.320 	70.46582
38.340 	70.41406
38.360 	59.64746
38.380 	34.13281
38.400 	17.35352
38.420 	18.11132
38.440 	28.68652
38.460 	33.04395
38.480 	23.44727
38.500 	11.89160
38.520 	6.03418
38.540 	4.97852
38.560 	7.13574
38.580 	10.87793
38.600 	17.73633
38.620 	23.13086
38.640 	17.96387
38.660 	11.07715
38.680 	15.17383
38.700 	32.29297
38.720 	44.73242
38.740 	32.13378
38.760 	15.26562
38.780 	10.81738
38.800 	17.21582
38.820 	27.30176
38.840 	44.42285
38.860 	82.60254
38.880 	108.25781
38.900 	83.94531
38.920 	56.92481
38.940 	55.98730
38.960 	66.79981
38.980 	67.90820
39.000 	48.31836
39.020 	31.25098
39.040 	25.94727
39.060 	31.32324
39.080 	57.38867
39.100 	100.12011
39.120 	108.14648
39.140 	83.64941
39.160 	74.29004
39.180 	73.25488
39.200 	81.68750
39.220 	86.82227
39.240 	79.26465
39.260 	73.01563
39.280 	59.16748
39.300 	43.19239
39.320 	33.75733
39.340 	28.84131
39.360 	29.23779
39.380 	35.83887
39.400 	42.90186
39.420 	37.62696
39.440 	25.76904
39.460 	16.28614
39.480 	14.09912
39.500 	17.87109
39.520 	20.61084
39.540 	24.03125
39.560 	27.17871
39.580 	24.29687
39.600 	18.35596
39.620 	14.17139
39.640 	15.90625
39.660 	23.84424
39.680 	34.72216
39.700 	43.31494
39.720 	45.12598
39.740 	43.88623
39.760 	48.06738
39.780 	46.64453
39.800 	43.44433
39.820 	52.20654
39.840 	59.02441
39.860 	48.90528
39.880 	34.13770
39.900 	34.87256
39.920 	60.34668
39.940 	81.95117
39.960 	63.71240
39.980 	32.81104
40.000 	20.20751
40.020 	30.27783
40.040 	50.82129
40.060 	58.95068
40.080 	45.88379
40.100 	25.70704
40.120 	13.46582
40.140 	12.46338
40.160 	18.08642
40.180 	20.29882
40.200 	19.26172
40.220 	20.10645
40.240 	19.31738
40.260 	18.14942
40.280 	28.70068
40.300 	49.37110
40.320 	60.04200
40.340 	51.28711
40.360 	33.26514
40.380 	23.44141
40.400 	28.15772
40.420 	38.21387
40.440 	43.62500
40.460 	39.03418
40.480 	27.01416
40.500 	18.70264
40.520 	16.22558
40.540 	17.16894
40.560 	19.55078
40.580 	20.98487
40.600 	25.40527
40.620 	28.80859
40.640 	22.60401
40.660 	19.39794
40.680 	23.23291
40.700 	23.36719
40.720 	19.22510
40.740 	13.76660
40.760 	11.79589
40.780 	17.83691
40.800 	27.60840
40.820 	30.35840
40.840 	21.60401
40.860 	10.99219
40.880 	7.66650
40.900 	11.15381
40.920 	15.89355
40.940 	14.08789
40.960 	9.28467
40.980 	7.20605
41.000 	9.81446
41.020 	21.60449
41.040 	59.60108
41.060 	141.01563
41.080 	221.75146
41.100 	200.36084
41.120 	124.55957
41.140 	89.58936
41.160 	113.31689
41.180 	180.31836
41.200 	227.14502
41.220 	186.34375
41.240 	105.16504
41.260 	64.42334
41.280 	65.74023
41.300 	80.31640
41.320 	83.12256
41.340 	67.10986
41.360 	70.56934
41.380 	103.38086
41.400 	118.10450
41.420 	88.54931
41.440 	62.09375
41.460 	61.72754
41.480 	73.91064
41.500 	87.45850
41.520 	96.23487
41.540 	98.52734
41.560 	75.58447
41.580 	44.58203
41.600 	29.88672
41.620 	41.68164
41.640 	73.01611
41.660 	81.19434
41.680 	49.27002
41.700 	19.58057
41.720 	11.74854
41.740 	18.17773
41.760 	27.04932
41.780 	23.69043
41.800 	15.54101
41.820 	12.16601
41.840 	16.85645
41.860 	33.08789
41.880 	60.49805
41.900 	73.63965
41.920 	66.22656
41.940 	53.48438
41.960 	58.43896
41.980 	103.09131
42.000 	148.11279
42.020 	125.74561
42.040 	85.39307
42.060 	77.20654
42.080 	84.36768
42.100 	83.26416
42.120 	66.85791
42.140 	42.10791
42.160 	36.90234
42.180 	51.87696
42.200 	57.02686
42.220 	40.34668
42.240 	18.96729
42.260 	9.74512
42.280 	10.93994
42.300 	18.27930
42.320 	21.84033
42.340 	20.76025
42.360 	27.73438
42.380 	45.54346
42.400 	69.31153
42.420 	84.55371
42.440 	65.30323
42.460 	38.92578
42.480 	31.17481
42.500 	43.07129
42.520 	65.60547
42.540 	69.58496
42.560 	47.98877
42.580 	31.87353
42.600 	34.88183
42.620 	46.04834
42.640 	42.44629
42.660 	27.77734
42.680 	18.54346
42.700 	19.28516
42.720 	27.30664
42.740 	31.40137
42.760 	23.75635
42.780 	16.78760
42.800 	20.38916
42.820 	32.88623
42.840 	53.10742
42.860 	80.78955
42.880 	82.50782
42.900 	54.90576
42.920 	40.30127
42.940 	46.02197
42.960 	54.71436
42.980 	61.78076
43.000 	61.02783
43.020 	51.30762
43.040 	36.41406
43.060 	27.76367
43.080 	27.45898
43.100 	37.20606
43.120 	44.42187
43.140 	35.91553
43.160 	21.89892
43.180 	14.08301
43.200 	13.59912
43.220 	16.18067
43.240 	15.72021
43.260 	13.69092
43.280 	13.66357
43.300 	12.24951
43.320 	8.76611
43.340 	11.25049
43.360 	23.78223
43.380 	36.35498
43.400 	34.05030
43.420 	30.71338
43.440 	38.30908
43.460 	41.23340
43.480 	33.26758
43.500 	24.35254
43.520 	16.38038
43.540 	15.74561
43.560 	19.77783
43.580 	16.69042
43.600 	10.59522
43.620 	8.36132
43.640 	10.06299
43.660 	18.32325
43.680 	38.32568
43.700 	59.63623
43.720 	62.25440
43.740 	41.51709
43.760 	21.27784
43.780 	17.51563
43.800 	25.71192
43.820 	33.04444
43.840 	29.88769
43.860 	20.84668
43.880 	22.33301
43.900 	32.68750
43.920 	30.92139
43.940 	17.73438
43.960 	9.29053
43.980 	10.20752
44.000 	21.78173
44.020 	38.30420
44.040 	38.58838
44.060 	21.81299
44.080 	9.06446
44.100 	5.86817
44.120 	9.32763
44.140 	14.44434
44.160 	13.53955
44.180 	8.14600
44.200 	5.87354
44.220 	6.39307
44.240 	5.19824
44.260 	3.52735
44.280 	4.12305
44.300 	8.27539
44.320 	16.49756
44.340 	25.25391
44.360 	33.39844
44.380 	36.93897
44.400 	38.07081
44.420 	50.93359
44.440 	63.56592
44.460 	59.10303
44.480 	53.81836
44.500 	52.60987
44.520 	51.55371
44.540 	63.09814
44.560 	77.01905
44.580 	67.87598
44.600 	43.39404
44.620 	27.40722
44.640 	21.04394
44.660 	24.36035
44.680 	32.13379
44.700 	37.13672
44.720 	48.79589
44.740 	74.16211
44.760 	91.49951
44.780 	82.07862
44.800 	49.43652
44.820 	29.08448
44.840 	37.13330
44.860 	63.63184
44.880 	77.82569
44.900 	59.77197
44.920 	31.82763
44.940 	20.69335
44.960 	27.06787
44.980 	34.32862
45.000 	30.28077
45.020 	20.83448
45.040 	25.24853
45.060 	53.28711
45.080 	92.29736
45.100 	110.68115
45.120 	107.89258
45.140 	115.36425
45.160 	127.42188
45.180 	113.50146
45.200 	101.12793
45.220 	93.22413
45.240 	85.95361
45.260 	87.25097
45.280 	91.44336
45.300 	85.78857
45.320 	82.41650
45.340 	87.17920
45.360 	81.94043
45.380 	54.15381
45.400 	35.04492
45.420 	35.30713
45.440 	45.78321
45.460 	61.75831
45.480 	67.82520
45.500 	59.49072
45.520 	48.25732
45.540 	49.71240
45.560 	61.76856
45.580 	73.69726
45.600 	83.83301
45.620 	91.47754
45.640 	76.61084
45.660 	49.95752
45.680 	36.57470
45.700 	33.93457
45.720 	35.86621
45.740 	39.17627
45.760 	35.68652
45.780 	35.91260
45.800 	50.31836
45.820 	55.65576
45.840 	37.96386
45.860 	22.17481
45.880 	21.15577
45.900 	34.55664
45.920 	53.11670
45.940 	67.76074
45.960 	82.16064
45.980 	85.73730
46.000 	76.98047
46.020 	75.15771
46.040 	62.71777
46.060 	47.08056
46.080 	44.70166
46.100 	44.17334
46.120 	40.56982
46.140 	42.80713
46.160 	39.98389
46.180 	25.89111
46.200 	12.69678
46.220 	7.13037
46.240 	10.85596
46.260 	26.58789
46.280 	47.62207
46.300 	47.81787
46.320 	30.91796
46.340 	19.20898
46.360 	15.87159
46.380 	19.57666
46.400 	26.59717
46.420 	26.87452
46.440 	21.53711
46.460 	21.58741
46.480 	25.60937
46.500 	27.62988
46.520 	23.94043
46.540 	15.00537
46.560 	9.57422
46.580 	10.43115
46.600 	13.81250
46.620 	15.50244
46.640 	17.10401
46.660 	23.48193
46.680 	34.61572
46.700 	34.83301
46.720 	22.30664
46.740 	12.40478
46.760 	9.40185
46.780 	13.24365
46.800 	22.61670
46.820 	30.66992
46.840 	31.89502
46.860 	24.65185
46.880 	18.24121
46.900 	26.56396
46.920 	61.23632
46.940 	111.20313
46.960 	136.54687
46.980 	145.25781
47.000 	140.58692
47.020 	95.07617
47.040 	60.05127
47.060 	61.10742
47.080 	68.62745
47.100 	72.74414
47.120 	77.24365
47.140 	59.15966
47.160 	33.07666
47.180 	20.80127
47.200 	15.55078
47.220 	10.07813
47.240 	7.26465
47.260 	8.15528
47.280 	8.83155
47.300 	9.88965
47.320 	9.57373
47.340 	7.89112
47.360 	7.73877
47.380 	10.46533
47.400 	15.50489
47.420 	21.61035
47.440 	31.44091
47.460 	44.94092
47.480 	42.53711
47.500 	26.89160
47.520 	20.69092
47.540 	28.96338
47.560 	44.61182
47.580 	55.00293
47.600 	46.07422
47.620 	28.02539
47.640 	22.86181
47.660 	31.76807
47.680 	43.26563
47.700 	46.84082
47.720 	41.13623
47.740 	35.23193
47.760 	33.32666
47.780 	29.75244
47.800 	26.80616
47.820 	27.43359
47.840 	29.50684
47.860 	32.20410
47.880 	36.91357
47.900 	39.31690
47.920 	32.05664
47.940 	27.60156
47.960 	35.79004
47.980 	53.41357
48.000 	79.65235
48.020 	94.76807
48.040 	70.90234
48.060 	41.79053
48.080 	38.24805
48.100 	49.50732
48.120 	58.24463
48.140 	56.52930
48.160 	40.82715
48.180 	22.91553
48.200 	18.63086
48.220 	22.37158
48.240 	23.36035
48.260 	20.26660
48.280 	23.60987
48.300 	40.21778
48.320 	52.21484
48.340 	41.28467
48.360 	31.34960
48.380 	31.58155
48.400 	28.26709
48.420 	26.18555
48.440 	31.52198
48.460 	34.01904
48.480 	36.57227
48.500 	41.67138
48.520 	38.58203
48.540 	24.18554
48.560 	13.29590
48.580 	12.08496
48.600 	16.67578
48.620 	19.58398
48.640 	18.32959
48.660 	14.52832
48.680 	9.74755
48.700 	7.30908
48.720 	7.66845
48.740 	6.59912
48.760 	4.38964
48.780 	3.49853
48.800 	3.89404
48.820 	5.55567
48.840 	13.01611
48.860 	33.98193
48.880 	60.40820
48.900 	59.24365
48.920 	36.50928
48.940 	27.81103
48.960 	36.00049
48.980 	49.98095
49.000 	73.31006
49.020 	100.54443
49.040 	109.20850
49.060 	94.13037
49.080 	67.28759
49.100 	52.15576
49.120 	55.05713
49.140 	67.14111
49.160 	77.53955
49.180 	80.31738
49.200 	64.26025
49.220 	53.15479
49.240 	63.11523
49.260 	78.50928
49.280 	89.06397
49.300 	81.75586
49.320 	59.50488
49.340 	41.40088
49.360 	34.36084
49.380 	34.33057
49.400 	37.71191
49.420 	43.52197
49.440 	47.46289
49.460 	51.81103
49.480 	43.71338
49.500 	28.83838
49.520 	21.74072
49.540 	23.27783
49.560 	33.07764
49.580 	48.68555
49.600 	54.43457
49.620 	39.34180
49.640 	25.28662
49.660 	20.18847
49.680 	25.19922
49.700 	44.08740
49.720 	71.82813
49.740 	85.18652
49.760 	70.15527
49.780 	41.70606
49.800 	24.02344
49.820 	28.16553
49.840 	47.95752
49.860 	59.31006
49.880 	55.81202
49.900 	53.04053
49.920 	62.71533
49.940 	71.20801
49.960 	77.11377
49.980 	107.49853
50.000 	130.84424

# vim:ts=8:sw=8
